# Aluminum phonon density of states. 
# x axis: energy in meV
# Energy(meV)     DOS
0.000000000000000000e+00 0.000000000000000000e+00
8.172059584022457746e-02 5.057952098982194404e-07
1.634411916804491549e-01 2.023180839592877761e-06
2.451617875206737462e-01 4.552156889083974857e-06
3.268823833608983098e-01 8.092723358371511046e-06
4.086029792011228734e-01 1.264488024745548506e-05
4.903235750413474925e-01 1.820862755633589943e-05
5.720441708815720006e-01 2.478396528501274231e-05
6.537647667217966196e-01 3.237089343348604418e-05
7.354853625620212387e-01 4.096941200175577795e-05
8.172059584022457468e-01 5.057952098982194022e-05
8.989265542424703659e-01 6.120122039768454455e-05
9.806471500826949850e-01 7.283451022534359772e-05
1.062367745922919493e+00 8.547939047279907261e-05
1.144088341763144001e+00 9.913586114005096923e-05
1.225808937603368731e+00 1.138039222270993689e-04
1.307529533443593239e+00 1.294835737339441767e-04
1.389250129283817747e+00 1.461748156605853792e-04
1.470970725124042477e+00 1.638776480070231118e-04
1.552691320964266986e+00 1.825920707732572119e-04
1.634411916804491494e+00 2.023180839592877609e-04
1.716132512644716224e+00 2.230556875651147858e-04
1.797853108484940732e+00 2.448048815907381782e-04
1.879573704325165240e+00 2.675656660361580195e-04
1.961294300165389970e+00 2.913380409013743909e-04
2.043014896005614478e+00 3.161220061863870756e-04
2.124735491845838986e+00 3.419175618911962904e-04
2.206456087686063494e+00 3.687247080158018728e-04
2.288176683526288002e+00 3.965434445602038769e-04
2.369897279366512954e+00 4.253737715244025738e-04
2.451617875206737462e+00 4.552156889083974756e-04
2.533338471046961971e+00 4.860691967121888533e-04
2.615059066887186479e+00 5.179342949357767069e-04
2.696779662727410987e+00 5.508109835791609281e-04
2.778500258567635495e+00 5.846992626423415168e-04
2.860220854407860003e+00 6.195991321253186898e-04
2.941941450248084955e+00 6.555105920280924472e-04
3.023662046088309463e+00 6.924336423506624637e-04
3.105382641928533971e+00 7.303682830930288477e-04
3.187103237768758479e+00 7.693145142551917077e-04
3.268823833608982987e+00 8.092723358371510436e-04
3.350544429449207495e+00 8.502417478389067470e-04
3.432265025289432447e+00 8.922227502604591432e-04
3.513985621129656955e+00 9.352153431018076900e-04
3.595706216969881464e+00 9.792195263629527129e-04
3.677426812810105972e+00 1.024235300043894320e-03
3.759147408650330480e+00 1.070262664144632078e-03
3.840868004490554988e+00 1.117301618665166420e-03
3.922588600330779940e+00 1.165352163605497563e-03
4.004309196171004004e+00 1.214414298965624424e-03
4.086029792011228956e+00 1.264488024745548302e-03
4.167750387851453020e+00 1.315573340945268331e-03
4.249470983691677972e+00 1.367670247564785162e-03
4.331191579531902924e+00 1.420778744604098576e-03
4.412912175372126988e+00 1.474898832063207491e-03
4.494632771212351940e+00 1.530030509942113858e-03
4.576353367052576004e+00 1.586173778240815508e-03
4.658073962892800957e+00 1.643328636959314609e-03
4.739794558733025909e+00 1.701495086097610295e-03
4.821515154573249973e+00 1.760673125655701481e-03
4.903235750413474925e+00 1.820862755633589902e-03
4.984956346253698989e+00 1.882063976031274040e-03
5.066676942093923941e+00 1.944276786848755413e-03
5.148397537934148005e+00 2.007501188086032503e-03
5.230118133774372957e+00 2.071737179743106828e-03
5.311838729614597909e+00 2.136984761819977086e-03
5.393559325454821973e+00 2.203243934316643712e-03
5.475279921295046925e+00 2.270514697233106706e-03
5.557000517135270989e+00 2.338797050569366067e-03
5.638721112975495942e+00 2.408090994325422229e-03
5.720441708815720006e+00 2.478396528501274759e-03
5.802162304655944958e+00 2.549713653096923657e-03
5.883882900496169910e+00 2.622042368112369789e-03
5.965603496336393974e+00 2.695382673547610988e-03
6.047324092176618926e+00 2.769734569402649855e-03
6.129044688016842990e+00 2.845098055677483789e-03
6.210765283857067942e+00 2.921473132372115391e-03
6.292485879697292894e+00 2.998859799486542927e-03
6.374206475537516958e+00 3.077258057020766831e-03
6.455927071377741910e+00 3.156667904974787102e-03
6.537647667217965974e+00 3.237089343348604174e-03
6.619368263058190927e+00 3.318522372142217614e-03
6.701088858898414991e+00 3.400966991355626988e-03
6.782809454738639943e+00 3.484423200988833597e-03
6.864530050578864895e+00 3.568891001041836573e-03
6.946250646419088959e+00 3.654370391514635049e-03
7.027971242259313911e+00 3.740861372407230760e-03
7.109691838099537975e+00 3.828363943719621972e-03
7.191412433939762927e+00 3.916878105451810851e-03
7.273133029779986991e+00 4.006403857603795665e-03
7.354853625620211943e+00 4.096941200175577280e-03
7.436574221460436895e+00 4.188490133167154829e-03
7.518294817300660959e+00 4.281050656578528311e-03
7.600015413140885912e+00 4.374622770409699463e-03
7.681736008981109975e+00 4.469206474660665680e-03
7.763456604821334928e+00 4.564801769331429566e-03
7.845177200661559880e+00 4.661408654421990254e-03
7.926897796501783944e+00 4.759027129932346008e-03
8.008618392342008008e+00 4.857657195862497695e-03
8.090338988182233848e+00 4.957298852212448786e-03
8.172059584022457912e+00 4.874278739889444968e-03
8.253780179862681976e+00 4.934835831848658795e-03
8.335500775702906040e+00 5.010528244708170598e-03
8.417221371543131880e+00 5.103837656694729802e-03
8.498941967383355944e+00 5.207688445249374944e-03
8.580662563223580008e+00 5.303867446057110822e-03
8.662383159063805849e+00 5.385277261169798407e-03
8.744103754904029913e+00 5.453847313073540565e-03
8.825824350744253977e+00 5.521248197512825841e-03
8.907544946584479817e+00 5.600164472916102469e-03
8.989265542424703881e+00 5.701191045452629058e-03
9.070986138264927945e+00 5.814606541329583531e-03
9.152706734105152009e+00 5.924432670765093084e-03
9.234427329945377849e+00 6.011128550899130264e-03
9.316147925785601913e+00 6.063833752559133310e-03
9.397868521625825977e+00 6.089461645632866620e-03
9.479589117466051817e+00 6.108464089495666167e-03
9.561309713306275881e+00 6.150641749727988987e-03
9.643030309146499945e+00 6.239232752381367215e-03
9.724750904986724009e+00 6.382252518177104240e-03
9.806471500826949850e+00 6.565528529322979708e-03
9.888192096667173914e+00 6.767002913362048580e-03
9.969912692507397978e+00 6.973670096366728355e-03
1.005163328834762382e+01 7.176371880173924162e-03
1.013335388418784788e+01 7.377169441777093467e-03
1.021507448002807195e+01 7.576403974156593717e-03
1.029679507586829601e+01 7.759168073727343989e-03
1.037851567170852185e+01 7.915969471487187964e-03
1.046023626754874591e+01 8.033959244768571969e-03
1.054195686338896998e+01 8.089479427002312095e-03
1.062367745922919582e+01 8.070495160411713872e-03
1.070539805506941988e+01 7.995232501310811993e-03
1.078711865090964395e+01 7.906811067872854606e-03
1.086883924674986801e+01 7.858597931818147100e-03
1.095055984259009385e+01 7.887658105040457751e-03
1.103228043843031791e+01 8.010594545129036750e-03
1.111400103427054198e+01 8.227775351542792812e-03
1.119572163011076782e+01 8.519043230537103745e-03
1.127744222595099188e+01 8.863456857227735436e-03
1.135916282179121595e+01 9.244959800460758950e-03
1.144088341763144001e+01 9.633751986563776279e-03
1.152260401347166585e+01 9.992831949792549059e-03
1.160432460931188992e+01 1.029937961588312835e-02
1.168604520515211398e+01 1.052891585587790307e-02
1.176776580099233982e+01 1.063765019248347730e-02
1.184948639683256388e+01 1.061286599157028505e-02
1.193120699267278795e+01 1.050885277999993699e-02
1.201292758851301201e+01 1.037920332596117476e-02
1.209464818435323785e+01 1.026646170833485708e-02
1.217636878019346192e+01 1.022932342591947701e-02
1.225808937603368598e+01 1.032328854305459599e-02
1.233980997187391182e+01 1.056602243562393233e-02
1.242153056771413588e+01 1.093355362131604933e-02
1.250325116355435995e+01 1.139776062338348876e-02
1.258497175939458579e+01 1.190617530575234333e-02
1.266669235523480985e+01 1.239158432036184879e-02
1.274841295107503392e+01 1.280148624247923195e-02
1.283013354691525798e+01 1.309812734667865734e-02
1.291185414275548382e+01 1.327905234086297799e-02
1.299357473859570788e+01 1.334189462926453629e-02
1.307529533443593195e+01 1.330600387645137182e-02
1.315701593027615779e+01 1.321183888980156582e-02
1.323873652611638185e+01 1.312779772494793683e-02
1.332045712195660592e+01 1.312615643471490463e-02
1.340217771779682998e+01 1.323692629921557375e-02
1.348389831363705582e+01 1.348466388034322283e-02
1.356561890947727989e+01 1.386106958185453347e-02
1.364733950531750395e+01 1.433740741190128037e-02
1.372906010115772979e+01 1.486059678397286428e-02
1.381078069699795385e+01 1.537306103122451466e-02
1.389250129283817792e+01 1.584172739468982932e-02
1.397422188867840198e+01 1.625087740674801065e-02
1.405594248451862782e+01 1.662599698656085090e-02
1.413766308035885189e+01 1.696618212989186442e-02
1.421938367619907595e+01 1.726274460511733472e-02
1.430110427203930179e+01 1.753977193452055036e-02
1.438282486787952585e+01 1.781207482998939731e-02
1.446454546371974992e+01 1.808192974715962589e-02
1.454626605955997398e+01 1.832854677745184707e-02
1.462798665540019982e+01 1.856962579748797082e-02
1.470970725124042389e+01 1.883683119675633524e-02
1.479142784708064795e+01 1.915635298232576389e-02
1.487314844292087379e+01 1.953943572073314761e-02
1.495486903876109785e+01 1.997354125985493709e-02
1.503658963460132192e+01 2.047055820073849855e-02
1.511831023044154598e+01 2.103613796820519993e-02
1.520003082628177182e+01 2.164872048949448638e-02
1.528175142212199589e+01 2.228377965836024488e-02
1.536347201796221995e+01 2.294475816425440781e-02
1.544519261380244579e+01 2.361073869522762464e-02
1.552691320964266986e+01 2.424515208699376881e-02
1.560863380548289392e+01 2.485938272280182118e-02
1.569035440132311976e+01 2.544429406668171842e-02
1.577207499716334382e+01 2.600123891991376612e-02
1.585379559300356789e+01 2.655554560407626455e-02
1.593551618884379195e+01 2.709864867262086821e-02
1.601723678468401602e+01 2.763757034214465655e-02
1.609895738052424008e+01 2.822565572250588031e-02
1.618067797636446770e+01 2.894218140309548493e-02
1.626239857220469176e+01 2.985451888419051250e-02
1.634411916804491582e+01 3.101074638446804643e-02
1.642583976388513989e+01 3.240606924320485471e-02
1.650756035972536395e+01 3.398727723462319217e-02
1.658928095556558802e+01 3.575034792920925297e-02
1.667100155140581208e+01 3.771147597634826043e-02
1.675272214724603970e+01 3.984283141940017647e-02
1.683444274308626376e+01 4.211210729963380667e-02
1.691616333892648782e+01 4.446872453603305242e-02
1.699788393476671189e+01 4.682414805355047255e-02
1.707960453060693595e+01 4.910537232855708561e-02
1.716132512644716002e+01 5.122835370377807479e-02
1.724304572228738408e+01 5.308637130356819861e-02
1.732476631812761170e+01 5.466738897936801456e-02
1.740648691396783576e+01 5.595715165197256286e-02
1.748820750980805983e+01 5.690268378715970798e-02
1.756992810564828389e+01 5.753786214268149374e-02
1.765164870148850795e+01 5.791958159198237061e-02
1.773336929732873202e+01 5.809975964214288829e-02
1.781508989316895963e+01 5.811364189200267372e-02
1.789681048900918370e+01 5.796784047369947512e-02
1.797853108484940776e+01 5.770942956481945468e-02
1.806025168068963183e+01 5.742331415501984726e-02
1.814197227652985589e+01 5.714825839407592506e-02
1.822369287237007995e+01 5.687369816786010807e-02
1.830541346821030402e+01 5.661252426997031434e-02
1.838713406405053163e+01 5.638763328566760713e-02
1.846885465989075570e+01 5.617791044521054655e-02
1.855057525573097976e+01 5.594279796824456336e-02
1.863229585157120383e+01 5.568392796996681632e-02
1.871401644741142789e+01 5.542566319704810007e-02
1.879573704325165195e+01 5.523948179173914647e-02
1.887745763909187602e+01 5.518713323675111804e-02
1.895917823493210363e+01 5.520697026185463624e-02
1.904089883077232770e+01 5.524004098829283366e-02
1.912261942661255176e+01 5.524535444502864934e-02
1.920434002245277583e+01 5.514505060978775602e-02
1.928606061829299989e+01 5.494260688527186076e-02
1.936778121413322395e+01 5.469651167665580405e-02
1.944950180997344802e+01 5.446420323623089171e-02
1.953122240581367564e+01 5.430001565907117272e-02
1.961294300165389970e+01 5.415636980230566916e-02
1.969466359749412376e+01 5.395918275077193904e-02
1.977638419333434783e+01 5.372640295365142121e-02
1.985810478917457189e+01 5.345359411688820062e-02
1.993982538501479596e+01 5.310533851106381820e-02
2.002154598085502002e+01 5.270594959546270192e-02
2.010326657669524764e+01 5.236305956880524942e-02
2.018498717253547170e+01 5.217630108188051757e-02
2.026670776837569576e+01 5.215016277140566842e-02
2.034842836421591983e+01 5.219674075819011327e-02
2.043014896005614389e+01 5.217953178162233058e-02
2.051186955589636796e+01 5.203173867298093586e-02
2.059359015173659202e+01 5.176824304340805344e-02
2.067531074757681964e+01 5.145569719670946285e-02
2.075703134341704370e+01 5.119645671957344379e-02
2.083875193925726776e+01 5.107529557399326930e-02
2.092047253509749183e+01 5.109376828616699062e-02
2.100219313093771589e+01 5.117606195824597748e-02
2.108391372677793996e+01 5.125765517161866985e-02
2.116563432261816402e+01 5.128514098710057478e-02
2.124735491845839164e+01 5.124198449236982283e-02
2.132907551429861570e+01 5.114466158422628639e-02
2.141079611013883977e+01 5.103669421162446845e-02
2.149251670597906383e+01 5.098665682675702915e-02
2.157423730181928789e+01 5.099199218611576850e-02
2.165595789765951196e+01 5.099644872796235684e-02
2.173767849349973602e+01 5.092340524549331809e-02
2.181939908933996364e+01 5.075276713094421799e-02
2.190111968518018770e+01 5.053823996190981438e-02
2.198284028102041177e+01 5.038714711562555792e-02
2.206456087686063583e+01 5.036620625224334791e-02
2.214628147270085989e+01 5.042607631822771524e-02
2.222800206854108396e+01 5.051478456695471936e-02
2.230972266438130802e+01 5.060527601193283431e-02
2.239144326022153564e+01 5.066769783389615811e-02
2.247316385606175970e+01 5.067141342899257606e-02
2.255488445190198377e+01 5.063594099311057722e-02
2.263660504774220783e+01 5.065084727240822676e-02
2.271832564358243189e+01 5.079242393073726131e-02
2.280004623942265596e+01 5.107910250686858999e-02
2.288176683526288002e+01 5.147530272386063172e-02
2.296348743110310764e+01 5.192709062985518403e-02
2.304520802694333170e+01 5.237364729435345367e-02
2.312692862278355577e+01 5.278871051802195430e-02
2.320864921862377983e+01 5.317902555240657664e-02
2.329036981446400389e+01 5.351406299664836913e-02
2.337209041030422796e+01 5.372544617938140865e-02
2.345381100614445202e+01 5.374191062946498398e-02
2.353553160198467964e+01 5.351025020641053676e-02
2.361725219782490370e+01 5.299514299641763793e-02
2.369897279366512777e+01 5.223616526105405444e-02
2.378069338950535183e+01 5.131334498367053076e-02
2.386241398534557590e+01 5.026918440010644945e-02
2.394413458118579996e+01 4.912141641527482949e-02
2.402585517702602402e+01 4.790741681353555270e-02
2.410757577286625164e+01 4.667908101179343849e-02
2.418929636870647570e+01 4.545068182057529493e-02
2.427101696454669977e+01 4.420383063210449326e-02
2.435273756038692383e+01 4.291551147026632235e-02
2.443445815622714790e+01 4.158916290092316836e-02
2.451617875206737196e+01 4.027199121200002868e-02
2.459789934790759958e+01 3.903524654126499377e-02
2.467961994374782364e+01 3.793055703032846560e-02
2.476134053958804770e+01 3.698387193801810219e-02
2.484306113542827177e+01 3.622902435973633650e-02
2.492478173126849583e+01 3.565964718128256106e-02
2.500650232710871990e+01 3.524498199981111052e-02
2.508822292294894396e+01 3.495696468253791517e-02
2.516994351878917158e+01 3.473429574106270956e-02
2.525166411462939564e+01 3.451238837215212657e-02
2.533338471046961971e+01 3.423894494826581342e-02
2.541510530630984377e+01 3.387021437114725447e-02
2.549682590215006783e+01 3.337190617469571602e-02
2.557854649799029190e+01 3.273878653265844402e-02
2.566026709383051596e+01 3.200196841977523410e-02
2.574198768967074358e+01 3.124180193446613948e-02
2.582370828551096764e+01 3.054203319062866184e-02
2.590542888135119171e+01 2.995011248444845800e-02
2.598714947719141577e+01 2.949937214619484036e-02
2.606887007303163983e+01 2.919770140707898462e-02
2.615059066887186390e+01 2.906768548602826907e-02
2.623231126471208796e+01 2.910338720684848418e-02
2.631403186055231558e+01 2.923377036838445062e-02
2.639575245639253964e+01 2.932962364911787662e-02
2.647747305223276371e+01 2.926116232262723424e-02
2.655919364807298777e+01 2.901315150522544573e-02
2.664091424391321183e+01 2.861502347697722839e-02
2.672263483975343590e+01 2.808676245979225758e-02
2.680435543559365996e+01 2.749247166007488807e-02
2.688607603143388758e+01 2.688373535160219416e-02
2.696779662727411164e+01 2.627170766365350546e-02
2.704951722311433571e+01 2.570702163606779223e-02
2.713123781895455977e+01 2.523743819283502665e-02
2.721295841479478383e+01 2.485121741845841559e-02
2.729467901063500790e+01 2.451708761413851079e-02
2.737639960647523196e+01 2.421354413616334453e-02
2.745812020231545958e+01 2.396604913384915367e-02
2.753984079815568364e+01 2.376838748294627865e-02
2.762156139399590771e+01 2.357153579729106760e-02
2.770328198983613177e+01 2.339077284406486032e-02
2.778500258567635584e+01 2.325167020730956394e-02
2.786672318151657990e+01 2.314783275809212740e-02
2.794844377735680396e+01 2.305325908667671397e-02
2.803016437319703158e+01 2.295457444545933451e-02
2.811188496903725564e+01 2.287493522280942618e-02
2.819360556487747971e+01 2.280895155655818587e-02
2.827532616071770377e+01 2.272648724616229202e-02
2.835704675655792784e+01 2.259099401607654253e-02
2.843876735239815190e+01 2.238269339130894917e-02
2.852048794823837596e+01 2.215692686898080785e-02
2.860220854407860358e+01 2.197283339647938816e-02
2.868392913991882764e+01 2.181349655174927640e-02
2.876564973575905171e+01 2.168271967550402385e-02
2.884737033159927577e+01 2.161440388759491155e-02
2.892909092743949984e+01 2.161905658185380927e-02
2.901081152327972390e+01 2.166214064221312977e-02
2.909253211911994796e+01 2.166141521342462503e-02
2.917425271496017558e+01 2.160584493054037991e-02
2.925597331080039964e+01 2.154036051557076462e-02
2.933769390664062371e+01 2.148010808361620200e-02
2.941941450248084777e+01 2.140437024109460851e-02
2.950113509832107184e+01 2.128756736161688951e-02
2.958285569416129590e+01 2.114778490433930069e-02
2.966457629000151996e+01 2.104915270425796597e-02
2.974629688584174758e+01 2.103467307304907399e-02
2.982801748168197165e+01 2.110296241454271554e-02
2.990973807752219571e+01 2.123023664275877284e-02
2.999145867336241977e+01 2.138670584597504934e-02
3.007317926920264384e+01 2.153461394001185761e-02
3.015489986504286790e+01 2.162061465635220503e-02
3.023662046088309197e+01 2.160118259305028945e-02
3.031834105672331958e+01 2.146925434529805068e-02
3.040006165256354365e+01 2.122617241219125137e-02
3.048178224840376771e+01 2.088507041156896504e-02
3.056350284424399177e+01 2.050653797603757891e-02
3.064522344008421584e+01 2.017031295832740628e-02
3.072694403592443990e+01 1.994794959499071596e-02
3.080866463176466397e+01 1.985901554339618638e-02
3.089038522760489158e+01 1.988645976430453849e-02
3.097210582344511565e+01 1.999459875033278433e-02
3.105382641928533971e+01 2.014522491653119793e-02
3.113554701512556377e+01 2.032279805583488488e-02
3.121726761096578784e+01 2.049132015400111431e-02
3.129898820680601190e+01 2.058759427399616329e-02
3.138070880264623952e+01 2.056353326859475597e-02
3.146242939848646358e+01 2.041580903223101651e-02
3.154414999432668765e+01 2.018224459141247998e-02
3.162587059016691171e+01 1.991153341906872279e-02
3.170759118600713578e+01 1.963059660626495853e-02
3.178931178184735984e+01 1.934665498414639764e-02
3.187103237768758390e+01 1.908358755784503313e-02
3.195275297352781152e+01 1.888209888934549302e-02
3.203447356936803203e+01 1.878254914719180990e-02
3.211619416520825609e+01 1.879119593945460798e-02
3.219791476104848016e+01 1.886993140786617437e-02
3.227963535688871133e+01 1.896024605752581402e-02
3.236135595272893539e+01 1.899025167371154454e-02
3.244307654856915946e+01 1.891580362086173195e-02
